# Pulseq sequence file
# Created by PyPulseq

[VERSION]
major 1
minor 4
revision 0

[DEFINITIONS]
AdcRasterTime 1e-07 
BlockDurationRaster 1e-05 
FOV 0.25 0.25 0.003 
GradientRasterTime 1e-05 
Name bSSFP 
RadiofrequencyRasterTime 1e-06 
TotalDuration 56.17846 

# Format of blocks:
# NUM DUR RF  GX  GY  GZ  ADC  EXT
[BLOCKS]
    1 406   1   0   0   1  0  1
    2 406   1   3   2   1  0  0
    3 424   0   4   2   5  0  0
    4 406   1   3   2   1  0  0
    5 424   0   4   2   5  0  0
    6 406   1   3   2   1  0  0
    7 424   0   4   2   5  0  0
    8 406   1   3   2   1  0  0
    9 424   0   4   2   5  0  0
   10 406   1   3   2   1  0  0
   11 424   0   4   2   5  0  0
   12 406   1   3   2   1  0  0
   13 424   0   4   2   5  0  0
   14 406   1   3   2   1  0  0
   15 424   0   4   2   5  0  0
   16 406   1   3   2   1  0  0
   17 424   0   4   2   5  0  0
   18 406   1   3   2   1  0  0
   19 424   0   4   2   5  0  0
   20 406   1   3   2   1  0  0
   21 424   0   4   2   5  0  0
   22 406   1   3   2   1  0  0
   23 424   0   4   2   5  0  0
   24 406   1   3   2   1  0  0
   25 424   0   4   2   5  0  0
   26 406   1   3   2   1  0  0
   27 424   0   4   2   5  0  0
   28 406   1   3   2   1  0  0
   29 424   0   4   2   5  0  0
   30 406   1   3   2   1  0  0
   31 424   0   4   2   5  0  0
   32 406   1   3   2   1  0  0
   33 424   0   4   2   5  0  0
   34 406   1   3   2   1  0  0
   35 424   0   4   2   5  0  0
   36 406   1   3   2   1  0  0
   37 424   0   4   2   5  0  0
   38 406   1   3   2   1  0  0
   39 424   0   4   2   5  0  0
   40 406   1   3   2   1  0  0
   41 424   0   4   2   5  0  0
   42 406   1   3   2   1  0  0
   43 424   0   4   2   5  0  0
   44 406   1   3   2   1  0  0
   45 424   0   4   2   5  0  0
   46 406   1   3   2   1  0  0
   47 424   0   4   2   5  0  0
   48 406   1   3   2   1  0  0
   49 424   0   4   2   5  0  0
   50 406   1   3   2   1  0  0
   51 424   0   4   2   5  0  0
   52 406   1   3   2   1  0  0
   53 424   0   4   2   5  0  0
   54 406   1   3   2   1  0  0
   55 424   0   4   2   5  0  0
   56 406   1   3   2   1  0  0
   57 424   0   4   2   5  0  0
   58 406   1   3   2   1  0  0
   59 424   0   4   2   5  0  0
   60 406   1   3   2   1  0  0
   61 424   0   4   2   5  0  0
   62 406   1   3   2   1  0  0
   63 424   0   4   2   5  0  0
   64 406   1   3   2   1  0  0
   65 424   0   4   2   5  0  0
   66 406   1   3   2   1  0  0
   67 424   0   4   2   5  0  0
   68 406   1   3   2   1  0  0
   69 424   0   4   2   5  0  0
   70 406   1   3   2   1  0  0
   71 424   0   4   2   5  0  0
   72 406   1   3   2   1  0  0
   73 424   0   4   2   5  0  0
   74 406   1   3   2   1  0  0
   75 424   0   4   2   5  0  0
   76 406   1   3   2   1  0  0
   77 424   0   4   2   5  0  0
   78 406   1   3   2   1  0  0
   79 424   0   4   2   5  0  0
   80 406   1   3   2   1  0  0
   81 424   0   4   2   5  0  0
   82 406   1   3   2   1  0  0
   83 424   0   4   2   5  0  0
   84 406   1   3   2   1  0  0
   85 424   0   4   2   5  0  0
   86 406   1   3   2   1  0  0
   87 424   0   4   2   5  0  0
   88 406   1   3   2   1  0  0
   89 424   0   4   2   5  0  0
   90 406   1   3   2   1  0  0
   91 424   0   4   2   5  0  0
   92 406   1   3   2   1  0  0
   93 424   0   4   2   5  0  0
   94 406   1   3   2   1  0  0
   95 424   0   4   2   5  0  0
   96 406   1   3   2   1  0  0
   97 424   0   4   2   5  0  0
   98 406   1   3   2   1  0  0
   99 424   0   4   2   5  0  0
  100 406   1   3   2   1  0  0
  101 424   0   4   2   5  0  0
  102 406   1   3   2   1  0  0
  103 424   0   4   2   5  0  0
  104 406   1   3   2   1  0  0
  105 424   0   4   2   5  0  0
  106 406   1   3   2   1  0  0
  107 424   0   4   2   5  0  0
  108 406   1   3   2   1  0  0
  109 424   0   4   2   5  0  0
  110 406   1   3   2   1  0  0
  111 424   0   4   2   5  0  0
  112 406   1   3   2   1  0  0
  113 424   0   4   2   5  0  0
  114 406   1   3   2   1  0  0
  115 424   0   4   2   5  0  0
  116 406   1   3   2   1  0  0
  117 424   0   4   2   5  0  0
  118 406   1   3   2   1  0  0
  119 424   0   4   2   5  0  0
  120 406   1   3   2   1  0  0
  121 424   0   4   2   5  0  0
  122 406   1   3   2   1  0  0
  123 424   0   4   2   5  0  0
  124 406   1   3   2   1  0  0
  125 424   0   4   2   5  0  0
  126 406   1   3   2   1  0  0
  127 424   0   4   2   5  0  0
  128 406   1   3   2   1  0  0
  129 424   0   4   2   5  0  0
  130 406   1   3   2   1  0  0
  131 424   0   4   2   5  0  0
  132 406   1   3   2   1  0  0
  133 424   0   4   2   5  0  0
  134 406   1   3   2   1  0  0
  135 424   0   4   2   5  0  0
  136 406   1   3   2   1  0  0
  137 424   0   4   2   5  0  0
  138 406   1   3   2   1  0  0
  139 424   0   4   2   5  0  0
  140 406   1   3   2   1  0  0
  141 424   0   4   2   5  0  0
  142 406   1   3   2   1  0  0
  143 424   0   4   2   5  0  0
  144 406   1   3   2   1  0  0
  145 424   0   4   2   5  0  0
  146 406   1   3   2   1  0  0
  147 424   0   4   2   5  0  0
  148 406   1   3   2   1  0  0
  149 424   0   4   2   5  0  0
  150 406   1   3   2   1  0  0
  151 424   0   4   2   5  0  0
  152 406   1   3   2   1  0  0
  153 424   0   4   2   5  0  0
  154 406   1   3   2   1  0  0
  155 424   0   4   2   5  0  0
  156 406   1   3   2   1  0  0
  157 424   0   4   2   5  0  0
  158 406   1   3   2   1  0  0
  159 424   0   4   2   5  0  0
  160 406   1   3   2   1  0  0
  161 424   0   4   2   5  0  0
  162 406   1   3   2   1  0  0
  163 424   0   4   2   5  0  0
  164 406   1   3   2   1  0  0
  165 424   0   4   2   5  0  0
  166 406   1   3   2   1  0  0
  167 424   0   4   2   5  0  0
  168 406   1   3   2   1  0  0
  169 424   0   4   2   5  0  0
  170 406   1   3   2   1  0  0
  171 424   0   4   2   5  0  0
  172 406   1   3   2   1  0  0
  173 424   0   4   2   5  0  0
  174 406   1   3   2   1  0  0
  175 424   0   4   2   5  0  0
  176 406   1   3   2   1  0  0
  177 424   0   4   2   5  0  0
  178 406   1   3   2   1  0  0
  179 424   0   4   2   5  0  0
  180 406   1   3   2   1  0  0
  181 424   0   4   2   5  0  0
  182 406   1   3   2   1  0  0
  183 424   0   4   2   5  0  0
  184 406   1   3   2   1  0  0
  185 424   0   4   2   5  0  0
  186 406   1   3   2   1  0  0
  187 424   0   4   2   5  0  0
  188 406   1   3   2   1  0  0
  189 424   0   4   2   5  0  0
  190 406   1   3   2   1  0  0
  191 424   0   4   2   5  0  0
  192 406   1   3   2   1  0  0
  193 424   0   4   2   5  0  0
  194 406   1   3   2   1  0  0
  195 424   0   4   2   5  0  0
  196 406   1   3   2   1  0  0
  197 424   0   4   2   5  0  0
  198 406   1   3   2   1  0  0
  199 424   0   4   2   5  0  0
  200 406   1   3   2   1  0  0
  201 424   0   4   2   5  0  0
  202 406   1   3   2   1  0  0
  203 424   0   4   2   5  0  0
  204 406   1   3   2   1  0  0
  205 424   0   4   2   5  0  0
  206 406   1   3   2   1  0  0
  207 424   0   4   2   5  0  0
  208 406   1   3   2   1  0  0
  209 424   0   4   2   5  0  0
  210 406   1   3   2   1  0  0
  211 424   0   4   2   5  0  0
  212 406   1   3   2   1  0  0
  213 424   0   4   2   5  0  0
  214 406   1   3   2   1  0  0
  215 424   0   4   2   5  0  0
  216 406   1   3   2   1  0  0
  217 424   0   4   2   5  0  0
  218 406   1   3   2   1  0  0
  219 424   0   4   2   5  0  0
  220 406   1   3   2   1  0  0
  221 424   0   4   2   5  0  0
  222 406   1   3   2   1  0  0
  223 424   0   4   2   5  0  0
  224 406   1   3   2   1  0  0
  225 424   0   4   2   5  0  0
  226 406   1   3   2   1  0  0
  227 424   0   4   2   5  0  0
  228 406   1   3   2   1  0  0
  229 424   0   4   2   5  0  0
  230 406   1   3   2   1  0  0
  231 424   0   4   2   5  0  0
  232 406   1   3   2   1  0  0
  233 424   0   4   2   5  0  0
  234 406   1   3   2   1  0  0
  235 424   0   4   2   5  0  0
  236 406   1   3   2   1  0  0
  237 424   0   4   2   5  0  0
  238 406   1   3   2   1  0  0
  239 424   0   4   2   5  0  0
  240 406   1   3   2   1  0  0
  241 424   0   4   2   5  0  0
  242 406   1   3   2   1  0  0
  243 424   0   4   2   5  0  0
  244 406   1   3   2   1  0  0
  245 424   0   4   2   5  0  0
  246 406   1   3   2   1  0  0
  247 424   0   4   2   5  0  0
  248 406   1   3   2   1  0  0
  249 424   0   4   2   5  0  0
  250 406   1   3   2   1  0  0
  251 424   0   4   2   5  0  0
  252 406   1   3   2   1  0  0
  253 424   0   4   2   5  0  0
  254 406   1   3   2   1  0  0
  255 424   0   4   2   5  0  0
  256 406   1   3   2   1  0  0
  257 424   0   4   2   5  0  0
  258 406   1   3   2   1  0  0
  259 424   0   4   2   5  0  0
  260 406   1   3   2   1  0  0
  261 424   0   4   2   5  0  0
  262 406   1   3   2   1  0  0
  263 424   0   4   2   5  0  0
  264 406   1   3   2   1  0  0
  265 424   0   4   2   5  0  0
  266 406   1   3   2   1  0  0
  267 424   0   4   2   5  0  0
  268 406   1   3   2   1  0  0
  269 424   0   4   2   5  0  0
  270 406   1   3   2   1  0  0
  271 424   0   4   2   5  0  0
  272 406   1   3   2   1  0  0
  273 424   0   4   2   5  0  0
  274 406   1   3   2   1  0  0
  275 424   0   4   2   5  0  0
  276 406   1   3   2   1  0  0
  277 424   0   4   2   5  0  0
  278 406   1   3   2   1  0  0
  279 424   0   4   2   5  0  0
  280 406   1   3   2   1  0  0
  281 424   0   4   2   5  0  0
  282 406   1   3   2   1  0  0
  283 424   0   4   2   5  0  0
  284 406   1   3   2   1  0  0
  285 424   0   4   2   5  0  0
  286 406   1   3   2   1  0  0
  287 424   0   4   2   5  0  0
  288 406   1   3   2   1  0  0
  289 424   0   4   2   5  0  0
  290 406   1   3   2   1  0  0
  291 424   0   4   2   5  0  0
  292 406   1   3   2   1  0  0
  293 424   0   4   2   5  0  0
  294 406   1   3   2   1  0  0
  295 424   0   4   2   5  0  0
  296 406   1   3   2   1  0  0
  297 424   0   4   2   5  0  0
  298 406   1   3   2   1  0  0
  299 424   0   4   2   5  0  0
  300 406   1   3   2   1  0  0
  301 424   0   4   2   5  0  0
  302 406   1   3   2   1  0  0
[RF]
1      54.8586 1 2 0 1040 0 0
2      54.8586 1 2 0 1040 0 5.23599
3      54.8586 1 2 0 1040 0 4.18879
4      54.8586 1 2 0 1040 0 3.14159
5      54.8586 1 2 0 1040 0 2.0944
6      54.8586 1 2 0 1040 0 1.0472
7      54.8586 1 2 0 1040 0 1.33227e-15
8      54.8586 1 2 0 1040 0 2.22045e-15
9      54.8586 1 2 0 1040 0 3.10862e-15
10      54.8586 1 2 0 1040 0 3.9968e-15
11      54.8586 1 2 0 1040 0 4.88498e-15
12      54.8586 1 2 0 1040 0 5.77316e-15
13      54.8586 1 2 0 1040 0 6.66134e-15
14      54.8586 1 2 0 1040 0 7.54952e-15
15      54.8586 1 2 0 1040 0 8.43769e-15
16      54.8586 1 2 0 1040 0 9.32587e-15
17      54.8586 1 2 0 1040 0 1.02141e-14
18      54.8586 1 2 0 1040 0 1.11022e-14
19      54.8586 1 2 0 1040 0 1.19904e-14
20      54.8586 1 2 0 1040 0 1.28786e-14
21      54.8586 1 2 0 1040 0 1.37668e-14
22      54.8586 1 2 0 1040 0 1.46549e-14
23      54.8586 1 2 0 1040 0 1.55431e-14
24      54.8586 1 2 0 1040 0 1.64313e-14
25      54.8586 1 2 0 1040 0 1.73195e-14
26      54.8586 1 2 0 1040 0 1.82077e-14
27      54.8586 1 2 0 1040 0 1.90958e-14
28      54.8586 1 2 0 1040 0 1.9984e-14
29      54.8586 1 2 0 1040 0 2.08722e-14
30      54.8586 1 2 0 1040 0 2.17604e-14
31      54.8586 1 2 0 1040 0 2.26485e-14
32      54.8586 1 2 0 1040 0 2.35367e-14
33      54.8586 1 2 0 1040 0 2.44249e-14
34      54.8586 1 2 0 1040 0 2.53131e-14
35      54.8586 1 2 0 1040 0 2.62013e-14
36      54.8586 1 2 0 1040 0 2.70894e-14
37      54.8586 1 2 0 1040 0 2.79776e-14
38      54.8586 1 2 0 1040 0 2.88658e-14
39      54.8586 1 2 0 1040 0 2.9754e-14
40      54.8586 1 2 0 1040 0 3.06422e-14
41      54.8586 1 2 0 1040 0 3.15303e-14
42      54.8586 1 2 0 1040 0 3.24185e-14
43      54.8586 1 2 0 1040 0 3.33067e-14
44      54.8586 1 2 0 1040 0 3.41949e-14
45      54.8586 1 2 0 1040 0 3.5083e-14
46      54.8586 1 2 0 1040 0 3.59712e-14
47      54.8586 1 2 0 1040 0 3.68594e-14
48      54.8586 1 2 0 1040 0 3.77476e-14
49      54.8586 1 2 0 1040 0 3.86358e-14
50      54.8586 1 2 0 1040 0 3.95239e-14
51      54.8586 1 2 0 1040 0 4.04121e-14
52      54.8586 1 2 0 1040 0 4.13003e-14
53      54.8586 1 2 0 1040 0 4.21885e-14
54      54.8586 1 2 0 1040 0 4.30767e-14
55      54.8586 1 2 0 1040 0 4.39648e-14
56      54.8586 1 2 0 1040 0 4.4853e-14
57      54.8586 1 2 0 1040 0 4.57412e-14
58      54.8586 1 2 0 1040 0 4.66294e-14
59      54.8586 1 2 0 1040 0 4.75175e-14
60      54.8586 1 2 0 1040 0 4.84057e-14
61      54.8586 1 2 0 1040 0 4.92939e-14
62      54.8586 1 2 0 1040 0 5.01821e-14
63      54.8586 1 2 0 1040 0 5.10703e-14
64      54.8586 1 2 0 1040 0 5.19584e-14
65      54.8586 1 2 0 1040 0 5.28466e-14
66      54.8586 1 2 0 1040 0 5.37348e-14
67      54.8586 1 2 0 1040 0 5.4623e-14
68      54.8586 1 2 0 1040 0 5.55112e-14
69      54.8586 1 2 0 1040 0 5.63993e-14
70      54.8586 1 2 0 1040 0 5.72875e-14
71      54.8586 1 2 0 1040 0 5.81757e-14
72      54.8586 1 2 0 1040 0 5.90639e-14
73      54.8586 1 2 0 1040 0 5.9952e-14
74      54.8586 1 2 0 1040 0 6.08402e-14
75      54.8586 1 2 0 1040 0 6.17284e-14
76      54.8586 1 2 0 1040 0 6.26166e-14
77      54.8586 1 2 0 1040 0 6.35048e-14
78      54.8586 1 2 0 1040 0 6.43929e-14
79      54.8586 1 2 0 1040 0 6.52811e-14
80      54.8586 1 2 0 1040 0 6.61693e-14
81      54.8586 1 2 0 1040 0 6.70575e-14
82      54.8586 1 2 0 1040 0 6.79456e-14
83      54.8586 1 2 0 1040 0 6.88338e-14
84      54.8586 1 2 0 1040 0 6.9722e-14
85      54.8586 1 2 0 1040 0 7.06102e-14
86      54.8586 1 2 0 1040 0 7.14984e-14
87      54.8586 1 2 0 1040 0 7.23865e-14
88      54.8586 1 2 0 1040 0 7.32747e-14
89      54.8586 1 2 0 1040 0 7.41629e-14
90      54.8586 1 2 0 1040 0 7.50511e-14
91      54.8586 1 2 0 1040 0 7.59393e-14
92      54.8586 1 2 0 1040 0 7.68274e-14
93      54.8586 1 2 0 1040 0 7.77156e-14
94      54.8586 1 2 0 1040 0 7.86038e-14
95      54.8586 1 2 0 1040 0 7.9492e-14
96      54.8586 1 2 0 1040 0 8.03801e-14
97      54.8586 1 2 0 1040 0 8.12683e-14
98      54.8586 1 2 0 1040 0 8.21565e-14
99      54.8586 1 2 0 1040 0 8.30447e-14
100      54.8586 1 2 0 1040 0 8.39329e-14
101      54.8586 1 2 0 1040 0 8.4821e-14
102      54.8586 1 2 0 1040 0 8.57092e-14
103      54.8586 1 2 0 1040 0 8.65974e-14
104      54.8586 1 2 0 1040 0 8.74856e-14
105      54.8586 1 2 0 1040 0 8.83738e-14
106      54.8586 1 2 0 1040 0 8.92619e-14
107      54.8586 1 2 0 1040 0 9.01501e-14
108      54.8586 1 2 0 1040 0 9.10383e-14
109      54.8586 1 2 0 1040 0 9.19265e-14
110      54.8586 1 2 0 1040 0 9.28146e-14
111      54.8586 1 2 0 1040 0 9.37028e-14
112      54.8586 1 2 0 1040 0 9.4591e-14
113      54.8586 1 2 0 1040 0 9.54792e-14
114      54.8586 1 2 0 1040 0 9.63674e-14
115      54.8586 1 2 0 1040 0 9.72555e-14
116      54.8586 1 2 0 1040 0 9.81437e-14
117      54.8586 1 2 0 1040 0 9.90319e-14
118      54.8586 1 2 0 1040 0 9.99201e-14
119      54.8586 1 2 0 1040 0 1.00808e-13
120      54.8586 1 2 0 1040 0 1.01696e-13
121      54.8586 1 2 0 1040 0 1.02585e-13
122      54.8586 1 2 0 1040 0 1.03473e-13
123      54.8586 1 2 0 1040 0 1.04361e-13
124      54.8586 1 2 0 1040 0 1.05249e-13
125      54.8586 1 2 0 1040 0 1.06137e-13
126      54.8586 1 2 0 1040 0 1.07025e-13
127      54.8586 1 2 0 1040 0 1.07914e-13
128      54.8586 1 2 0 1040 0 1.08802e-13
129      54.8586 1 2 0 1040 0 1.0969e-13
130      54.8586 1 2 0 1040 0 1.10578e-13
131      54.8586 1 2 0 1040 0 1.11466e-13
132      54.8586 1 2 0 1040 0 1.12355e-13
133      54.8586 1 2 0 1040 0 1.13243e-13
134      54.8586 1 2 0 1040 0 1.14131e-13
135      54.8586 1 2 0 1040 0 1.15019e-13
136      54.8586 1 2 0 1040 0 1.15907e-13
137      54.8586 1 2 0 1040 0 1.16795e-13
138      54.8586 1 2 0 1040 0 1.17684e-13
139      54.8586 1 2 0 1040 0 1.18572e-13
140      54.8586 1 2 0 1040 0 1.1946e-13
141      54.8586 1 2 0 1040 0 1.20348e-13
142      54.8586 1 2 0 1040 0 1.21236e-13
143      54.8586 1 2 0 1040 0 1.22125e-13
144      54.8586 1 2 0 1040 0 1.23013e-13
145      54.8586 1 2 0 1040 0 1.23901e-13
146      54.8586 1 2 0 1040 0 1.24789e-13
147      54.8586 1 2 0 1040 0 1.25677e-13
148      54.8586 1 2 0 1040 0 1.26565e-13
149      54.8586 1 2 0 1040 0 1.27454e-13
150      54.8586 1 2 0 1040 0 1.28342e-13
151      54.8586 1 2 0 1040 0 1.2923e-13
152      54.8586 1 2 0 1040 0 1.30118e-13
153      54.8586 1 2 0 1040 0 1.31006e-13
154      54.8586 1 2 0 1040 0 1.31894e-13
155      54.8586 1 2 0 1040 0 1.32783e-13
156      54.8586 1 2 0 1040 0 1.33671e-13
157      54.8586 1 2 0 1040 0 1.34559e-13
158      54.8586 1 2 0 1040 0 1.35447e-13
159      54.8586 1 2 0 1040 0 1.36335e-13
160      54.8586 1 2 0 1040 0 1.37224e-13
161      54.8586 1 2 0 1040 0 1.38112e-13
162      54.8586 1 2 0 1040 0 1.39e-13
163      54.8586 1 2 0 1040 0 1.39888e-13
164      54.8586 1 2 0 1040 0 1.40776e-13
165      54.8586 1 2 0 1040 0 1.41664e-13
166      54.8586 1 2 0 1040 0 1.42553e-13
167      54.8586 1 2 0 1040 0 1.43441e-13
168      54.8586 1 2 0 1040 0 1.44329e-13
169      54.8586 1 2 0 1040 0 1.45217e-13
170      54.8586 1 2 0 1040 0 1.46105e-13
171      54.8586 1 2 0 1040 0 1.46994e-13
172      54.8586 1 2 0 1040 0 1.47882e-13
173      54.8586 1 2 0 1040 0 1.4877e-13
174      54.8586 1 2 0 1040 0 1.49658e-13
175      54.8586 1 2 0 1040 0 1.50546e-13
176      54.8586 1 2 0 1040 0 1.51434e-13
177      54.8586 1 2 0 1040 0 1.52323e-13
178      54.8586 1 2 0 1040 0 1.53211e-13
179      54.8586 1 2 0 1040 0 1.54099e-13
180      54.8586 1 2 0 1040 0 1.54987e-13
181      54.8586 1 2 0 1040 0 1.55875e-13
182      54.8586 1 2 0 1040 0 1.56763e-13
183      54.8586 1 2 0 1040 0 1.57652e-13
184      54.8586 1 2 0 1040 0 1.5854e-13
185      54.8586 1 2 0 1040 0 1.59428e-13
186      54.8586 1 2 0 1040 0 1.60316e-13
187      54.8586 1 2 0 1040 0 1.61204e-13
188      54.8586 1 2 0 1040 0 1.62093e-13
189      54.8586 1 2 0 1040 0 1.62981e-13
190      54.8586 1 2 0 1040 0 1.63869e-13
191      54.8586 1 2 0 1040 0 1.64757e-13
192      54.8586 1 2 0 1040 0 1.65645e-13
193      54.8586 1 2 0 1040 0 1.66533e-13
194      54.8586 1 2 0 1040 0 1.67422e-13
195      54.8586 1 2 0 1040 0 1.67866e-13
196      54.8586 1 2 0 1040 0 1.68754e-13
197      54.8586 1 2 0 1040 0 1.69642e-13
198      54.8586 1 2 0 1040 0 1.7053e-13
199      54.8586 1 2 0 1040 0 1.71418e-13
200      54.8586 1 2 0 1040 0 1.72307e-13
201      54.8586 1 2 0 1040 0 1.73195e-13
202      54.8586 1 2 0 1040 0 1.74083e-13
203      54.8586 1 2 0 1040 0 1.74971e-13
204      54.8586 1 2 0 1040 0 1.75859e-13
205      54.8586 1 2 0 1040 0 1.76748e-13
206      54.8586 1 2 0 1040 0 1.77636e-13
207      54.8586 1 2 0 1040 0 1.78524e-13
208      54.8586 1 2 0 1040 0 1.79412e-13
209      54.8586 1 2 0 1040 0 1.803e-13
210      54.8586 1 2 0 1040 0 1.81188e-13
211      54.8586 1 2 0 1040 0 1.82077e-13
212      54.8586 1 2 0 1040 0 1.82965e-13
213      54.8586 1 2 0 1040 0 1.83853e-13
214      54.8586 1 2 0 1040 0 1.84741e-13
215      54.8586 1 2 0 1040 0 1.85629e-13
216      54.8586 1 2 0 1040 0 1.86517e-13
217      54.8586 1 2 0 1040 0 1.87406e-13
218      54.8586 1 2 0 1040 0 1.88294e-13
219      54.8586 1 2 0 1040 0 1.89182e-13
220      54.8586 1 2 0 1040 0 1.9007e-13
221      54.8586 1 2 0 1040 0 1.90958e-13
222      54.8586 1 2 0 1040 0 1.91847e-13
223      54.8586 1 2 0 1040 0 1.92735e-13
224      54.8586 1 2 0 1040 0 1.93623e-13
225      54.8586 1 2 0 1040 0 1.94511e-13
226      54.8586 1 2 0 1040 0 1.95399e-13
227      54.8586 1 2 0 1040 0 1.96287e-13
228      54.8586 1 2 0 1040 0 1.97176e-13
229      54.8586 1 2 0 1040 0 1.98064e-13
230      54.8586 1 2 0 1040 0 1.98952e-13
231      54.8586 1 2 0 1040 0 1.9984e-13
232      54.8586 1 2 0 1040 0 2.00728e-13
233      54.8586 1 2 0 1040 0 2.01617e-13
234      54.8586 1 2 0 1040 0 2.02505e-13
235      54.8586 1 2 0 1040 0 2.03393e-13
236      54.8586 1 2 0 1040 0 2.04281e-13
237      54.8586 1 2 0 1040 0 2.05169e-13
238      54.8586 1 2 0 1040 0 2.06057e-13
239      54.8586 1 2 0 1040 0 2.06946e-13
240      54.8586 1 2 0 1040 0 2.07834e-13
241      54.8586 1 2 0 1040 0 2.08722e-13
242      54.8586 1 2 0 1040 0 2.0961e-13
243      54.8586 1 2 0 1040 0 2.10498e-13
244      54.8586 1 2 0 1040 0 2.11386e-13
245      54.8586 1 2 0 1040 0 2.12275e-13
246      54.8586 1 2 0 1040 0 2.13163e-13
247      54.8586 1 2 0 1040 0 2.14051e-13
248      54.8586 1 2 0 1040 0 2.14939e-13
249      54.8586 1 2 0 1040 0 2.15827e-13
250      54.8586 1 2 0 1040 0 2.16716e-13
251      54.8586 1 2 0 1040 0 2.17604e-13
252      54.8586 1 2 0 1040 0 2.18492e-13
253      54.8586 1 2 0 1040 0 2.1938e-13
254      54.8586 1 2 0 1040 0 2.20268e-13
255      54.8586 1 2 0 1040 0 2.21156e-13
256      54.8586 1 2 0 1040 0 2.22045e-13
257      54.8586 1 2 0 1040 0 2.22933e-13
258      54.8586 1 2 0 1040 0 2.23821e-13
259      54.8586 1 2 0 1040 0 2.24709e-13
260      54.8586 1 2 0 1040 0 2.25597e-13
261      54.8586 1 2 0 1040 0 2.26485e-13
262      54.8586 1 2 0 1040 0 2.27374e-13
263      54.8586 1 2 0 1040 0 2.28262e-13
264      54.8586 1 2 0 1040 0 2.2915e-13
265      54.8586 1 2 0 1040 0 2.30038e-13
266      54.8586 1 2 0 1040 0 2.30926e-13
267      54.8586 1 2 0 1040 0 2.31815e-13
268      54.8586 1 2 0 1040 0 2.32703e-13
269      54.8586 1 2 0 1040 0 2.33591e-13
270      54.8586 1 2 0 1040 0 2.34479e-13
271      54.8586 1 2 0 1040 0 2.35367e-13
272      54.8586 1 2 0 1040 0 2.36255e-13
273      54.8586 1 2 0 1040 0 2.37144e-13
274      54.8586 1 2 0 1040 0 2.38032e-13
275      54.8586 1 2 0 1040 0 2.3892e-13
276      54.8586 1 2 0 1040 0 2.39808e-13
277      54.8586 1 2 0 1040 0 2.40696e-13
278      54.8586 1 2 0 1040 0 2.41585e-13
279      54.8586 1 2 0 1040 0 2.42473e-13
280      54.8586 1 2 0 1040 0 2.43361e-13
281      54.8586 1 2 0 1040 0 2.44249e-13
282      54.8586 1 2 0 1040 0 2.45137e-13
283      54.8586 1 2 0 1040 0 2.46025e-13
284      54.8586 1 2 0 1040 0 2.46914e-13
285      54.8586 1 2 0 1040 0 2.47802e-13
286      54.8586 1 2 0 1040 0 2.4869e-13
287      54.8586 1 2 0 1040 0 2.49578e-13
288      54.8586 1 2 0 1040 0 2.50466e-13
289      54.8586 1 2 0 1040 0 2.51354e-13
290      54.8586 1 2 0 1040 0 2.52243e-13
291      54.8586 1 2 0 1040 0 2.53131e-13
292      54.8586 1 2 0 1040 0 2.54019e-13
293      54.8586 1 2 0 1040 0 2.54907e-13
294      54.8586 1 2 0 1040 0 2.55795e-13
295      54.8586 1 2 0 1040 0 2.56684e-13
296      54.8586 1 2 0 1040 0 2.57572e-13
297      54.8586 1 2 0 1040 0 2.5846e-13
298      54.8586 1 2 0 1040 0 2.59348e-13
299      54.8586 1 2 0 1040 0 2.60236e-13
300      54.8586 1 2 0 1040 0 2.61124e-13
301      54.8586 1 2 0 1040 0 2.62013e-13
302      54.8586 1 2 0 1040 0 2.62901e-13
303      54.8586 1 2 0 1040 0 2.63789e-13
304      54.8586 1 2 0 1040 0 2.64677e-13
305      54.8586 1 2 0 1040 0 2.65565e-13
306      54.8586 1 2 0 1040 0 2.66454e-13
307      54.8586 1 2 0 1040 0 2.67342e-13
308      54.8586 1 2 0 1040 0 2.6823e-13
309      54.8586 1 2 0 1040 0 2.69118e-13
310      54.8586 1 2 0 1040 0 2.70006e-13
311      54.8586 1 2 0 1040 0 2.70894e-13
312      54.8586 1 2 0 1040 0 2.71783e-13
313      54.8586 1 2 0 1040 0 2.72671e-13
314      54.8586 1 2 0 1040 0 2.73559e-13
315      54.8586 1 2 0 1040 0 2.74447e-13
316      54.8586 1 2 0 1040 0 2.75335e-13
317      54.8586 1 2 0 1040 0 2.76223e-13
318      54.8586 1 2 0 1040 0 2.77112e-13
319      54.8586 1 2 0 1040 0 2.78e-13
320      54.8586 1 2 0 1040 0 2.78888e-13
321      54.8586 1 2 0 1040 0 2.79776e-13
322      54.8586 1 2 0 1040 0 2.80664e-13
323      54.8586 1 2 0 1040 0 2.81553e-13
324      54.8586 1 2 0 1040 0 2.82441e-13
325      54.8586 1 2 0 1040 0 2.83329e-13
326      54.8586 1 2 0 1040 0 2.84217e-13
327      54.8586 1 2 0 1040 0 2.85105e-13
328      54.8586 1 2 0 1040 0 2.85993e-13
329      54.8586 1 2 0 1040 0 2.86882e-13
330      54.8586 1 2 0 1040 0 2.8777e-13
331      54.8586 1 2 0 1040 0 2.88658e-13
332      54.8586 1 2 0 1040 0 2.89546e-13
333      54.8586 1 2 0 1040 0 2.90434e-13
334      54.8586 1 2 0 1040 0 2.91323e-13
335      54.8586 1 2 0 1040 0 2.92211e-13
336      54.8586 1 2 0 1040 0 2.93099e-13
337      54.8586 1 2 0 1040 0 2.93987e-13
338      54.8586 1 2 0 1040 0 2.94875e-13
339      54.8586 1 2 0 1040 0 2.95763e-13
340      54.8586 1 2 0 1040 0 2.96652e-13
341      54.8586 1 2 0 1040 0 2.9754e-13
342      54.8586 1 2 0 1040 0 2.98428e-13
343      54.8586 1 2 0 1040 0 2.99316e-13
344      54.8586 1 2 0 1040 0 3.00204e-13
345      54.8586 1 2 0 1040 0 3.01092e-13
346      54.8586 1 2 0 1040 0 3.01981e-13
347      54.8586 1 2 0 1040 0 3.02869e-13
348      54.8586 1 2 0 1040 0 3.03757e-13
349      54.8586 1 2 0 1040 0 3.04645e-13
350      54.8586 1 2 0 1040 0 3.05533e-13
351      54.8586 1 2 0 1040 0 3.06422e-13
352      54.8586 1 2 0 1040 0 3.0731e-13
353      54.8586 1 2 0 1040 0 3.08198e-13
354      54.8586 1 2 0 1040 0 3.09086e-13
355      54.8586 1 2 0 1040 0 3.09974e-13
356      54.8586 1 2 0 1040 0 3.10862e-13
357      54.8586 1 2 0 1040 0 3.11751e-13
358      54.8586 1 2 0 1040 0 3.12639e-13
359      54.8586 1 2 0 1040 0 3.13527e-13
360      54.8586 1 2 0 1040 0 3.14415e-13
361      54.8586 1 2 0 1040 0 3.15303e-13
362      54.8586 1 2 0 1040 0 3.16192e-13
363      54.8586 1 2 0 1040 0 3.1708e-13
364      54.8586 1 2 0 1040 0 3.17968e-13
365      54.8586 1 2 0 1040 0 3.18856e-13
366      54.8586 1 2 0 1040 0 3.19744e-13
367      54.8586 1 2 0 1040 0 3.20632e-13
368      54.8586 1 2 0 1040 0 3.21521e-13
369      54.8586 1 2 0 1040 0 3.22409e-13
370      54.8586 1 2 0 1040 0 3.23297e-13
371      54.8586 1 2 0 1040 0 3.24185e-13
372      54.8586 1 2 0 1040 0 3.25073e-13
373      54.8586 1 2 0 1040 0 3.25961e-13
374      54.8586 1 2 0 1040 0 3.2685e-13
375      54.8586 1 2 0 1040 0 3.27738e-13
376      54.8586 1 2 0 1040 0 3.28626e-13
377      54.8586 1 2 0 1040 0 3.29514e-13
378      54.8586 1 2 0 1040 0 3.30402e-13
379      54.8586 1 2 0 1040 0 3.31291e-13
380      54.8586 1 2 0 1040 0 3.32179e-13
381      54.8586 1 2 0 1040 0 3.33067e-13
382      54.8586 1 2 0 1040 0 3.33955e-13
383      54.8586 1 2 0 1040 0 3.34843e-13
384      54.8586 1 2 0 1040 0 3.35731e-13
385      54.8586 1 2 0 1040 0 3.3662e-13
386      54.8586 1 2 0 1040 0 3.37508e-13
387      54.8586 1 2 0 1040 0 3.38396e-13
388      54.8586 1 2 0 1040 0 3.39284e-13
389      54.8586 1 2 0 1040 0 3.40172e-13
390      54.8586 1 2 0 1040 0 3.41061e-13
391      54.8586 1 2 0 1040 0 3.41949e-13
392      54.8586 1 2 0 1040 0 3.42837e-13
393      54.8586 1 2 0 1040 0 3.43725e-13
394      54.8586 1 2 0 1040 0 3.44613e-13
395      54.8586 1 2 0 1040 0 3.45501e-13
396      54.8586 1 2 0 1040 0 3.4639e-13
397      54.8586 1 2 0 1040 0 3.47278e-13
398      54.8586 1 2 0 1040 0 3.48166e-13
399      54.8586 1 2 0 1040 0 3.49054e-13
400      54.8586 1 2 0 1040 0 3.49942e-13
401      54.8586 1 2 0 1040 0 3.5083e-13
402      54.8586 1 2 0 1040 0 3.51719e-13
403      54.8586 1 2 0 1040 0 3.52607e-13
404      54.8586 1 2 0 1040 0 3.53495e-13
405      54.8586 1 2 0 1040 0 3.54383e-13
406      54.8586 1 2 0 1040 0 3.55271e-13
407      54.8586 1 2 0 1040 0 3.5616e-13
408      54.8586 1 2 0 1040 0 3.57048e-13
409      54.8586 1 2 0 1040 0 3.57936e-13
410      54.8586 1 2 0 1040 0 3.58824e-13
411      54.8586 1 2 0 1040 0 3.59712e-13
412      54.8586 1 2 0 1040 0 3.606e-13
413      54.8586 1 2 0 1040 0 3.61489e-13
414      54.8586 1 2 0 1040 0 3.62377e-13
415      54.8586 1 2 0 1040 0 3.63265e-13
416      54.8586 1 2 0 1040 0 3.64153e-13
417      54.8586 1 2 0 1040 0 3.65041e-13
418      54.8586 1 2 0 1040 0 3.6593e-13
419      54.8586 1 2 0 1040 0 3.66818e-13
420      54.8586 1 2 0 1040 0 3.67706e-13
421      54.8586 1 2 0 1040 0 3.68594e-13
422      54.8586 1 2 0 1040 0 3.69482e-13
423      54.8586 1 2 0 1040 0 3.7037e-13
424      54.8586 1 2 0 1040 0 3.71259e-13
425      54.8586 1 2 0 1040 0 3.72147e-13
426      54.8586 1 2 0 1040 0 3.73035e-13
427      54.8586 1 2 0 1040 0 3.73923e-13
428      54.8586 1 2 0 1040 0 3.74811e-13
429      54.8586 1 2 0 1040 0 3.75699e-13
430      54.8586 1 2 0 1040 0 3.76588e-13
431      54.8586 1 2 0 1040 0 3.77476e-13
432      54.8586 1 2 0 1040 0 3.78364e-13
433      54.8586 1 2 0 1040 0 3.79252e-13
434      54.8586 1 2 0 1040 0 3.8014e-13
435      54.8586 1 2 0 1040 0 3.81029e-13
436      54.8586 1 2 0 1040 0 3.81917e-13
437      54.8586 1 2 0 1040 0 3.82805e-13
438      54.8586 1 2 0 1040 0 3.83693e-13
439      54.8586 1 2 0 1040 0 3.84581e-13
440      54.8586 1 2 0 1040 0 3.85469e-13
441      54.8586 1 2 0 1040 0 3.86358e-13
442      54.8586 1 2 0 1040 0 3.87246e-13
443      54.8586 1 2 0 1040 0 3.88134e-13
444      54.8586 1 2 0 1040 0 3.89022e-13
445      54.8586 1 2 0 1040 0 3.8991e-13
446      54.8586 1 2 0 1040 0 3.90799e-13
447      54.8586 1 2 0 1040 0 3.91687e-13
448      54.8586 1 2 0 1040 0 3.92575e-13
449      54.8586 1 2 0 1040 0 3.93463e-13
450      54.8586 1 2 0 1040 0 3.94351e-13
451      54.8586 1 2 0 1040 0 3.95239e-13
452      54.8586 1 2 0 1040 0 3.96128e-13
453      54.8586 1 2 0 1040 0 3.97016e-13
454      54.8586 1 2 0 1040 0 3.97904e-13
455      54.8586 1 2 0 1040 0 3.98792e-13
456      54.8586 1 2 0 1040 0 3.9968e-13
457      54.8586 1 2 0 1040 0 4.00568e-13
458      54.8586 1 2 0 1040 0 4.01457e-13
459      54.8586 1 2 0 1040 0 4.02345e-13
460      54.8586 1 2 0 1040 0 4.03233e-13
461      54.8586 1 2 0 1040 0 4.04121e-13
462      54.8586 1 2 0 1040 0 4.05009e-13
463      54.8586 1 2 0 1040 0 4.05898e-13
464      54.8586 1 2 0 1040 0 4.06786e-13
465      54.8586 1 2 0 1040 0 4.07674e-13
466      54.8586 1 2 0 1040 0 4.08562e-13
467      54.8586 1 2 0 1040 0 4.0945e-13
468      54.8586 1 2 0 1040 0 4.10338e-13
469      54.8586 1 2 0 1040 0 4.11227e-13
470      54.8586 1 2 0 1040 0 4.12115e-13
471      54.8586 1 2 0 1040 0 4.13003e-13
472      54.8586 1 2 0 1040 0 4.13891e-13
473      54.8586 1 2 0 1040 0 4.14779e-13
474      54.8586 1 2 0 1040 0 4.15668e-13
475      54.8586 1 2 0 1040 0 4.16556e-13
476      54.8586 1 2 0 1040 0 4.17444e-13
477      54.8586 1 2 0 1040 0 4.18332e-13
478      54.8586 1 2 0 1040 0 4.1922e-13
479      54.8586 1 2 0 1040 0 4.20108e-13
480      54.8586 1 2 0 1040 0 4.20997e-13
